Reflection, Transmission, Absorption, Diattenuation, and Phase vs. Wavelength

Reference wavelength for coating thickness: 0.3850 µm.
Phase and Retardance values are in degrees.

There is no coating on Surface 3.

Incident media: Air
Substrate     : SEAWATER
Angle of Incidence: 14.1514

Wavelength  S-Reflect  P-Reflect S-Transmit P-Transmit   S-Absorb   P-Absorb  S-Phase-T  P-Phase-T  S-Phase-R  P-Phase-R    Diatt-T    Diatt-R   Retard-T   Retard-R
  0.385000  0.0244418  0.0203003  0.9755582  0.9796997  0.0000000  0.0000000    -0.0000    -0.0000   180.0000   180.0000  0.0021182  0.0925653     0.0000   180.0000
  0.386412  0.0244231  0.0202842  0.9755769  0.9797158  0.0000000  0.0000000    -0.0000    -0.0000   180.0000   180.0000  0.0021167  0.0925767     0.0000   180.0000
  0.387825  0.0244046  0.0202684  0.9755954  0.9797316  0.0000000  0.0000000    -0.0000    -0.0000   180.0000   180.0000  0.0021153  0.0925879     0.0000   180.0000
  0.389238  0.0243864  0.0202529  0.9756136  0.9797471  0.0000000  0.0000000    -0.0000    -0.0000   180.0000   180.0000  0.0021140  0.0925989     0.0000   180.0000
  0.390650  0.0243685  0.0202375  0.9756315  0.9797625  0.0000000  0.0000000    -0.0000    -0.0000   180.0000   180.0000  0.0021126  0.0926097     0.0000   180.0000
  0.392062  0.0243508  0.0202224  0.9756492  0.9797776  0.0000000  0.0000000    -0.0000    -0.0000   180.0000   180.0000  0.0021112  0.0926205     0.0000   180.0000
  0.393475  0.0243333  0.0202075  0.9756667  0.9797925  0.0000000  0.0000000    -0.0000    -0.0000   180.0000   180.0000  0.0021099  0.0926310     0.0000   180.0000
  0.394888  0.0243161  0.0201927  0.9756839  0.9798073  0.0000000  0.0000000    -0.0000    -0.0000   180.0000   180.0000  0.0021086  0.0926414     0.0000   180.0000
  0.396300  0.0242991  0.0201782  0.9757009  0.9798218  0.0000000  0.0000000    -0.0000    -0.0000   180.0000   180.0000  0.0021073  0.0926517     0.0000   180.0000
  0.397713  0.0242824  0.0201639  0.9757176  0.9798361  0.0000000  0.0000000    -0.0000    -0.0000   180.0000   180.0000  0.0021060  0.0926619     0.0000   180.0000
  0.399125  0.0242659  0.0201498  0.9757341  0.9798502  0.0000000  0.0000000    -0.0000    -0.0000   180.0000   180.0000  0.0021048  0.0926719     0.0000   180.0000
  0.400537  0.0242496  0.0201359  0.9757504  0.9798641  0.0000000  0.0000000    -0.0000    -0.0000   180.0000   180.0000  0.0021035  0.0926818     0.0000   180.0000
  0.401950  0.0242335  0.0201221  0.9757665  0.9798779  0.0000000  0.0000000    -0.0000    -0.0000   180.0000   180.0000  0.0021023  0.0926916     0.0000   180.0000
  0.403363  0.0242177  0.0201086  0.9757823  0.9798914  0.0000000  0.0000000    -0.0000    -0.0000   180.0000   180.0000  0.0021011  0.0927012     0.0000   180.0000
  0.404775  0.0242020  0.0200952  0.9757980  0.9799048  0.0000000  0.0000000    -0.0000    -0.0000   180.0000   180.0000  0.0020999  0.0927107     0.0000   180.0000
  0.406188  0.0241865  0.0200820  0.9758135  0.9799180  0.0000000  0.0000000    -0.0000    -0.0000   180.0000   180.0000  0.0020987  0.0927201     0.0000   180.0000
  0.407600  0.0241713  0.0200689  0.9758287  0.9799311  0.0000000  0.0000000    -0.0000    -0.0000   180.0000   180.0000  0.0020976  0.0927294     0.0000   180.0000
  0.409013  0.0241562  0.0200560  0.9758438  0.9799440  0.0000000  0.0000000    -0.0000    -0.0000   180.0000   180.0000  0.0020964  0.0927386     0.0000   180.0000
  0.410425  0.0241413  0.0200433  0.9758587  0.9799567  0.0000000  0.0000000    -0.0000    -0.0000   180.0000   180.0000  0.0020953  0.0927477     0.0000   180.0000
  0.411838  0.0241266  0.0200307  0.9758734  0.9799693  0.0000000  0.0000000    -0.0000    -0.0000   180.0000   180.0000  0.0020942  0.0927566     0.0000   180.0000
  0.413250  0.0241121  0.0200183  0.9758879  0.9799817  0.0000000  0.0000000    -0.0000    -0.0000   180.0000   180.0000  0.0020931  0.0927655     0.0000   180.0000
  0.414662  0.0240977  0.0200060  0.9759023  0.9799940  0.0000000  0.0000000    -0.0000    -0.0000   180.0000   180.0000  0.0020920  0.0927742     0.0000   180.0000
  0.416075  0.0240835  0.0199939  0.9759165  0.9800061  0.0000000  0.0000000    -0.0000    -0.0000   180.0000   180.0000  0.0020909  0.0927829     0.0000   180.0000
  0.417488  0.0240695  0.0199819  0.9759305  0.9800181  0.0000000  0.0000000    -0.0000    -0.0000   180.0000   180.0000  0.0020898  0.0927914     0.0000   180.0000
  0.418900  0.0240557  0.0199701  0.9759443  0.9800299  0.0000000  0.0000000    -0.0000    -0.0000   180.0000   180.0000  0.0020888  0.0927999     0.0000   180.0000
  0.420312  0.0240420  0.0199584  0.9759580  0.9800416  0.0000000  0.0000000    -0.0000    -0.0000   180.0000   180.0000  0.0020877  0.0928082     0.0000   180.0000
  0.421725  0.0240285  0.0199468  0.9759715  0.9800532  0.0000000  0.0000000    -0.0000    -0.0000   180.0000   180.0000  0.0020867  0.0928165     0.0000   180.0000
  0.423138  0.0240151  0.0199354  0.9759849  0.9800646  0.0000000  0.0000000    -0.0000    -0.0000   180.0000   180.0000  0.0020857  0.0928247     0.0000   180.0000
  0.424550  0.0240019  0.0199241  0.9759981  0.9800759  0.0000000  0.0000000    -0.0000    -0.0000   180.0000   180.0000  0.0020847  0.0928328     0.0000   180.0000
  0.425963  0.0239888  0.0199129  0.9760112  0.9800871  0.0000000  0.0000000    -0.0000    -0.0000   180.0000   180.0000  0.0020837  0.0928407     0.0000   180.0000
  0.427375  0.0239759  0.0199019  0.9760241  0.9800981  0.0000000  0.0000000    -0.0000    -0.0000   180.0000   180.0000  0.0020827  0.0928486     0.0000   180.0000
  0.428787  0.0239631  0.0198910  0.9760369  0.9801090  0.0000000  0.0000000    -0.0000    -0.0000   180.0000   180.0000  0.0020817  0.0928565     0.0000   180.0000
  0.430200  0.0239505  0.0198802  0.9760495  0.9801198  0.0000000  0.0000000    -0.0000    -0.0000   180.0000   180.0000  0.0020807  0.0928642     0.0000   180.0000
  0.431613  0.0239380  0.0198695  0.9760620  0.9801305  0.0000000  0.0000000    -0.0000    -0.0000   180.0000   180.0000  0.0020798  0.0928718     0.0000   180.0000
  0.433025  0.0239256  0.0198589  0.9760744  0.9801411  0.0000000  0.0000000    -0.0000    -0.0000   180.0000   180.0000  0.0020789  0.0928794     0.0000   180.0000
  0.434438  0.0239134  0.0198485  0.9760866  0.9801515  0.0000000  0.0000000    -0.0000    -0.0000   180.0000   180.0000  0.0020779  0.0928869     0.0000   180.0000
  0.435850  0.0239013  0.0198381  0.9760987  0.9801619  0.0000000  0.0000000    -0.0000    -0.0000   180.0000   180.0000  0.0020770  0.0928943     0.0000   180.0000
  0.437263  0.0238893  0.0198279  0.9761107  0.9801721  0.0000000  0.0000000    -0.0000    -0.0000   180.0000   180.0000  0.0020761  0.0929017     0.0000   180.0000
  0.438675  0.0238775  0.0198178  0.9761225  0.9801822  0.0000000  0.0000000    -0.0000    -0.0000   180.0000   180.0000  0.0020752  0.0929089     0.0000   180.0000
  0.440088  0.0238658  0.0198078  0.9761342  0.9801922  0.0000000  0.0000000    -0.0000    -0.0000   180.0000   180.0000  0.0020743  0.0929161     0.0000   180.0000
  0.441500  0.0238542  0.0197979  0.9761458  0.9802021  0.0000000  0.0000000    -0.0000    -0.0000   180.0000   180.0000  0.0020734  0.0929232     0.0000   180.0000
  0.442912  0.0238427  0.0197881  0.9761573  0.9802119  0.0000000  0.0000000    -0.0000    -0.0000   180.0000   180.0000  0.0020725  0.0929303     0.0000   180.0000
  0.444325  0.0238314  0.0197784  0.9761686  0.9802216  0.0000000  0.0000000    -0.0000    -0.0000   180.0000   180.0000  0.0020717  0.0929372     0.0000   180.0000
  0.445738  0.0238201  0.0197688  0.9761799  0.9802312  0.0000000  0.0000000    -0.0000    -0.0000   180.0000   180.0000  0.0020708  0.0929441     0.0000   180.0000
  0.447150  0.0238090  0.0197593  0.9761910  0.9802407  0.0000000  0.0000000    -0.0000    -0.0000   180.0000   180.0000  0.0020699  0.0929510     0.0000   180.0000
  0.448562  0.0237980  0.0197499  0.9762020  0.9802501  0.0000000  0.0000000    -0.0000    -0.0000   180.0000   180.0000  0.0020691  0.0929577     0.0000   180.0000
  0.449975  0.0237871  0.0197406  0.9762129  0.9802594  0.0000000  0.0000000    -0.0000    -0.0000   180.0000   180.0000  0.0020683  0.0929644     0.0000   180.0000
  0.451388  0.0237763  0.0197314  0.9762237  0.9802686  0.0000000  0.0000000    -0.0000    -0.0000   180.0000   180.0000  0.0020675  0.0929710     0.0000   180.0000
  0.452800  0.0237656  0.0197222  0.9762344  0.9802778  0.0000000  0.0000000    -0.0000    -0.0000   180.0000   180.0000  0.0020666  0.0929776     0.0000   180.0000
  0.454213  0.0237551  0.0197132  0.9762449  0.9802868  0.0000000  0.0000000    -0.0000    -0.0000   180.0000   180.0000  0.0020658  0.0929841     0.0000   180.0000
  0.455625  0.0237446  0.0197043  0.9762554  0.9802957  0.0000000  0.0000000    -0.0000    -0.0000   180.0000   180.0000  0.0020650  0.0929906     0.0000   180.0000
  0.457037  0.0237342  0.0196954  0.9762658  0.9803046  0.0000000  0.0000000    -0.0000    -0.0000   180.0000   180.0000  0.0020642  0.0929969     0.0000   180.0000
  0.458450  0.0237240  0.0196866  0.9762760  0.9803134  0.0000000  0.0000000    -0.0000    -0.0000   180.0000   180.0000  0.0020635  0.0930033     0.0000   180.0000
  0.459863  0.0237138  0.0196780  0.9762862  0.9803220  0.0000000  0.0000000    -0.0000    -0.0000   180.0000   180.0000  0.0020627  0.0930095     0.0000   180.0000
  0.461275  0.0237038  0.0196694  0.9762962  0.9803306  0.0000000  0.0000000    -0.0000    -0.0000   180.0000   180.0000  0.0020619  0.0930157     0.0000   180.0000
  0.462688  0.0236938  0.0196609  0.9763062  0.9803391  0.0000000  0.0000000    -0.0000    -0.0000   180.0000   180.0000  0.0020611  0.0930219     0.0000   180.0000
  0.464100  0.0236839  0.0196524  0.9763161  0.9803476  0.0000000  0.0000000    -0.0000    -0.0000   180.0000   180.0000  0.0020604  0.0930279     0.0000   180.0000
  0.465513  0.0236741  0.0196441  0.9763259  0.9803559  0.0000000  0.0000000    -0.0000    -0.0000   180.0000   180.0000  0.0020596  0.0930340     0.0000   180.0000
  0.466925  0.0236645  0.0196358  0.9763355  0.9803642  0.0000000  0.0000000    -0.0000    -0.0000   180.0000   180.0000  0.0020589  0.0930399     0.0000   180.0000
  0.468338  0.0236549  0.0196276  0.9763451  0.9803724  0.0000000  0.0000000    -0.0000    -0.0000   180.0000   180.0000  0.0020582  0.0930459     0.0000   180.0000
  0.469750  0.0236454  0.0196195  0.9763546  0.9803805  0.0000000  0.0000000    -0.0000    -0.0000   180.0000   180.0000  0.0020574  0.0930517     0.0000   180.0000
  0.471162  0.0236360  0.0196115  0.9763640  0.9803885  0.0000000  0.0000000    -0.0000    -0.0000   180.0000   180.0000  0.0020567  0.0930575     0.0000   180.0000
  0.472575  0.0236266  0.0196035  0.9763734  0.9803965  0.0000000  0.0000000    -0.0000    -0.0000   180.0000   180.0000  0.0020560  0.0930633     0.0000   180.0000
  0.473988  0.0236174  0.0195956  0.9763826  0.9804044  0.0000000  0.0000000    -0.0000    -0.0000   180.0000   180.0000  0.0020553  0.0930690     0.0000   180.0000
  0.475400  0.0236082  0.0195878  0.9763918  0.9804122  0.0000000  0.0000000    -0.0000    -0.0000   180.0000   180.0000  0.0020546  0.0930746     0.0000   180.0000
  0.476812  0.0235992  0.0195800  0.9764008  0.9804200  0.0000000  0.0000000    -0.0000    -0.0000   180.0000   180.0000  0.0020539  0.0930802     0.0000   180.0000
  0.478225  0.0235902  0.0195724  0.9764098  0.9804276  0.0000000  0.0000000    -0.0000    -0.0000   180.0000   180.0000  0.0020532  0.0930858     0.0000   180.0000
  0.479637  0.0235813  0.0195648  0.9764187  0.9804352  0.0000000  0.0000000    -0.0000    -0.0000   180.0000   180.0000  0.0020525  0.0930913     0.0000   180.0000
  0.481050  0.0235724  0.0195572  0.9764276  0.9804428  0.0000000  0.0000000    -0.0000    -0.0000   180.0000   180.0000  0.0020519  0.0930968     0.0000   180.0000
  0.482463  0.0235637  0.0195497  0.9764363  0.9804503  0.0000000  0.0000000    -0.0000    -0.0000   180.0000   180.0000  0.0020512  0.0931022     0.0000   180.0000
  0.483875  0.0235550  0.0195423  0.9764450  0.9804577  0.0000000  0.0000000    -0.0000    -0.0000   180.0000   180.0000  0.0020505  0.0931075     0.0000   180.0000
  0.485287  0.0235464  0.0195350  0.9764536  0.9804650  0.0000000  0.0000000    -0.0000    -0.0000   180.0000   180.0000  0.0020499  0.0931128     0.0000   180.0000
  0.486700  0.0235379  0.0195277  0.9764621  0.9804723  0.0000000  0.0000000    -0.0000    -0.0000   180.0000   180.0000  0.0020492  0.0931181     0.0000   180.0000
  0.488113  0.0235295  0.0195205  0.9764705  0.9804795  0.0000000  0.0000000    -0.0000    -0.0000   180.0000   180.0000  0.0020486  0.0931233     0.0000   180.0000
  0.489525  0.0235211  0.0195134  0.9764789  0.9804866  0.0000000  0.0000000    -0.0000    -0.0000   180.0000   180.0000  0.0020479  0.0931285     0.0000   180.0000
  0.490938  0.0235128  0.0195063  0.9764872  0.9804937  0.0000000  0.0000000    -0.0000    -0.0000   180.0000   180.0000  0.0020473  0.0931336     0.0000   180.0000
  0.492350  0.0235046  0.0194993  0.9764954  0.9805007  0.0000000  0.0000000    -0.0000    -0.0000   180.0000   180.0000  0.0020467  0.0931387     0.0000   180.0000
  0.493762  0.0234965  0.0194923  0.9765035  0.9805077  0.0000000  0.0000000    -0.0000    -0.0000   180.0000   180.0000  0.0020460  0.0931438     0.0000   180.0000
  0.495175  0.0234884  0.0194854  0.9765116  0.9805146  0.0000000  0.0000000    -0.0000    -0.0000   180.0000   180.0000  0.0020454  0.0931488     0.0000   180.0000
  0.496588  0.0234804  0.0194786  0.9765196  0.9805214  0.0000000  0.0000000    -0.0000    -0.0000   180.0000   180.0000  0.0020448  0.0931537     0.0000   180.0000
  0.498000  0.0234725  0.0194718  0.9765275  0.9805282  0.0000000  0.0000000    -0.0000    -0.0000   180.0000   180.0000  0.0020442  0.0931587     0.0000   180.0000
  0.499412  0.0234646  0.0194651  0.9765354  0.9805349  0.0000000  0.0000000    -0.0000    -0.0000   180.0000   180.0000  0.0020436  0.0931635     0.0000   180.0000
  0.500825  0.0234568  0.0194584  0.9765432  0.9805416  0.0000000  0.0000000    -0.0000    -0.0000   180.0000   180.0000  0.0020430  0.0931684     0.0000   180.0000
  0.502238  0.0234490  0.0194518  0.9765510  0.9805482  0.0000000  0.0000000    -0.0000    -0.0000   180.0000   180.0000  0.0020424  0.0931732     0.0000   180.0000
  0.503650  0.0234414  0.0194453  0.9765586  0.9805547  0.0000000  0.0000000    -0.0000    -0.0000   180.0000   180.0000  0.0020418  0.0931779     0.0000   180.0000
  0.505062  0.0234338  0.0194388  0.9765662  0.9805612  0.0000000  0.0000000    -0.0000    -0.0000   180.0000   180.0000  0.0020412  0.0931827     0.0000   180.0000
  0.506475  0.0234262  0.0194323  0.9765738  0.9805677  0.0000000  0.0000000    -0.0000    -0.0000   180.0000   180.0000  0.0020407  0.0931873     0.0000   180.0000
  0.507888  0.0234187  0.0194259  0.9765813  0.9805741  0.0000000  0.0000000    -0.0000    -0.0000   180.0000   180.0000  0.0020401  0.0931920     0.0000   180.0000
  0.509300  0.0234113  0.0194196  0.9765887  0.9805804  0.0000000  0.0000000    -0.0000    -0.0000   180.0000   180.0000  0.0020395  0.0931966     0.0000   180.0000
  0.510713  0.0234040  0.0194133  0.9765960  0.9805867  0.0000000  0.0000000    -0.0000    -0.0000   180.0000   180.0000  0.0020390  0.0932012     0.0000   180.0000
  0.512125  0.0233967  0.0194071  0.9766033  0.9805929  0.0000000  0.0000000    -0.0000    -0.0000   180.0000   180.0000  0.0020384  0.0932057     0.0000   180.0000
  0.513537  0.0233894  0.0194009  0.9766106  0.9805991  0.0000000  0.0000000    -0.0000    -0.0000   180.0000   180.0000  0.0020378  0.0932102     0.0000   180.0000
  0.514950  0.0233822  0.0193948  0.9766178  0.9806052  0.0000000  0.0000000    -0.0000    -0.0000   180.0000   180.0000  0.0020373  0.0932147     0.0000   180.0000
  0.516363  0.0233751  0.0193887  0.9766249  0.9806113  0.0000000  0.0000000    -0.0000    -0.0000   180.0000   180.0000  0.0020368  0.0932191     0.0000   180.0000
  0.517775  0.0233680  0.0193827  0.9766320  0.9806173  0.0000000  0.0000000    -0.0000    -0.0000   180.0000   180.0000  0.0020362  0.0932235     0.0000   180.0000
  0.519188  0.0233610  0.0193767  0.9766390  0.9806233  0.0000000  0.0000000    -0.0000    -0.0000   180.0000   180.0000  0.0020357  0.0932278     0.0000   180.0000
  0.520600  0.0233541  0.0193708  0.9766459  0.9806292  0.0000000  0.0000000    -0.0000    -0.0000   180.0000   180.0000  0.0020351  0.0932322     0.0000   180.0000
  0.522012  0.0233472  0.0193649  0.9766528  0.9806351  0.0000000  0.0000000    -0.0000    -0.0000   180.0000   180.0000  0.0020346  0.0932365     0.0000   180.0000
  0.523425  0.0233403  0.0193590  0.9766597  0.9806410  0.0000000  0.0000000    -0.0000    -0.0000   180.0000   180.0000  0.0020341  0.0932407     0.0000   180.0000
  0.524838  0.0233335  0.0193532  0.9766665  0.9806468  0.0000000  0.0000000    -0.0000    -0.0000   180.0000   180.0000  0.0020336  0.0932449     0.0000   180.0000
  0.526250  0.0233268  0.0193475  0.9766732  0.9806525  0.0000000  0.0000000    -0.0000    -0.0000   180.0000   180.0000  0.0020330  0.0932491     0.0000   180.0000
  0.527663  0.0233201  0.0193418  0.9766799  0.9806582  0.0000000  0.0000000    -0.0000    -0.0000   180.0000   180.0000  0.0020325  0.0932533     0.0000   180.0000
  0.529075  0.0233135  0.0193361  0.9766865  0.9806639  0.0000000  0.0000000    -0.0000    -0.0000   180.0000   180.0000  0.0020320  0.0932574     0.0000   180.0000
  0.530488  0.0233069  0.0193305  0.9766931  0.9806695  0.0000000  0.0000000    -0.0000    -0.0000   180.0000   180.0000  0.0020315  0.0932615     0.0000   180.0000
  0.531900  0.0233004  0.0193249  0.9766996  0.9806751  0.0000000  0.0000000    -0.0000    -0.0000   180.0000   180.0000  0.0020310  0.0932656     0.0000   180.0000
  0.533312  0.0232939  0.0193194  0.9767061  0.9806806  0.0000000  0.0000000    -0.0000    -0.0000   180.0000   180.0000  0.0020305  0.0932696     0.0000   180.0000
  0.534725  0.0232875  0.0193139  0.9767125  0.9806861  0.0000000  0.0000000    -0.0000    -0.0000   180.0000   180.0000  0.0020300  0.0932736     0.0000   180.0000
  0.536137  0.0232811  0.0193084  0.9767189  0.9806916  0.0000000  0.0000000    -0.0000    -0.0000   180.0000   180.0000  0.0020295  0.0932776     0.0000   180.0000
  0.537550  0.0232748  0.0193030  0.9767252  0.9806970  0.0000000  0.0000000    -0.0000    -0.0000   180.0000   180.0000  0.0020291  0.0932816     0.0000   180.0000
  0.538963  0.0232685  0.0192977  0.9767315  0.9807023  0.0000000  0.0000000    -0.0000    -0.0000   180.0000   180.0000  0.0020286  0.0932855     0.0000   180.0000
  0.540375  0.0232622  0.0192923  0.9767378  0.9807077  0.0000000  0.0000000    -0.0000    -0.0000   180.0000   180.0000  0.0020281  0.0932894     0.0000   180.0000
  0.541787  0.0232560  0.0192871  0.9767440  0.9807129  0.0000000  0.0000000    -0.0000    -0.0000   180.0000   180.0000  0.0020276  0.0932932     0.0000   180.0000
  0.543200  0.0232499  0.0192818  0.9767501  0.9807182  0.0000000  0.0000000    -0.0000    -0.0000   180.0000   180.0000  0.0020272  0.0932971     0.0000   180.0000
  0.544612  0.0232438  0.0192766  0.9767562  0.9807234  0.0000000  0.0000000    -0.0000    -0.0000   180.0000   180.0000  0.0020267  0.0933009     0.0000   180.0000
  0.546025  0.0232377  0.0192714  0.9767623  0.9807286  0.0000000  0.0000000    -0.0000    -0.0000   180.0000   180.0000  0.0020262  0.0933046     0.0000   180.0000
  0.547438  0.0232317  0.0192663  0.9767683  0.9807337  0.0000000  0.0000000    -0.0000    -0.0000   180.0000   180.0000  0.0020258  0.0933084     0.0000   180.0000
  0.548850  0.0232258  0.0192612  0.9767742  0.9807388  0.0000000  0.0000000    -0.0000    -0.0000   180.0000   180.0000  0.0020253  0.0933121     0.0000   180.0000
  0.550262  0.0232198  0.0192562  0.9767802  0.9807438  0.0000000  0.0000000    -0.0000    -0.0000   180.0000   180.0000  0.0020248  0.0933158     0.0000   180.0000
