# This is the full resolution spectrum of Kurucz et al. (1992), 
# extracted using aer_extract_solar_v1.3 from the Atmospheric & Environmental 
# Research (AER) Radiative Transfer Working Group (Lexington).
# Wavelength in nm and spectral radiance in mW/m^2/nm.
# The spectrum covers approximately 749.0 to 770.0
#
# Reference:
# Kurucz, R.L., Synthetic infrared spectra, in Infrared Solar Physics,
# IAU Symp. 154, edited by D.M. Rabin and J.T. Jefferies, Kluwer, Acad.,
# Norwell, MA, 1992.
#

   749.0002980  1.29643E+03
   749.0017960  1.29268E+03
   749.0032940  1.28929E+03
   749.0047921  1.28643E+03
   749.0062901  1.28447E+03
   749.0077881  1.28339E+03
   749.0092861  1.28303E+03
   749.0107842  1.28320E+03
   749.0122822  1.28391E+03
   749.0137802  1.28480E+03
   749.0152783  1.28622E+03
   749.0167761  1.28818E+03
   749.0182742  1.29067E+03
   749.0197722  1.29387E+03
   749.0212703  1.29725E+03
   749.0227683  1.30045E+03
   749.0242664  1.30348E+03
   749.0257644  1.30579E+03
   749.0272625  1.30739E+03
   749.0287606  1.30863E+03
   749.0302586  1.30934E+03
   749.0317567  1.30987E+03
   749.0332548  1.31004E+03
   749.0347529  1.31039E+03
   749.0362509  1.31039E+03
   749.0377490  1.31056E+03
   749.0392471  1.31056E+03
   749.0407450  1.31073E+03
   749.0422431  1.31072E+03
   749.0437412  1.31072E+03
   749.0452393  1.31071E+03
   749.0467374  1.31071E+03
   749.0482355  1.31070E+03
   749.0497336  1.31070E+03
   749.0512317  1.31069E+03
   749.0527299  1.31069E+03
   749.0542280  1.31068E+03
   749.0557261  1.31068E+03
   749.0572242  1.31049E+03
   749.0587223  1.31031E+03
   749.0602205  1.30977E+03
   749.0617186  1.30869E+03
   749.0632166  1.30673E+03
   749.0647147  1.30352E+03
   749.0662128  1.29888E+03
   749.0677110  1.29228E+03
   749.0692091  1.28443E+03
   749.0707073  1.27605E+03
   749.0722054  1.26856E+03
   749.0737036  1.26321E+03
   749.0752018  1.26124E+03
   749.0766999  1.26284E+03
   749.0781981  1.26783E+03
   749.0796962  1.27477E+03
   749.0811944  1.28261E+03
   749.0826926  1.28973E+03
   749.0841908  1.29561E+03
   749.0856888  1.29988E+03
   749.0871870  1.30290E+03
   749.0886851  1.30486E+03
   749.0901833  1.30628E+03
   749.0916815  1.30699E+03
   749.0931797  1.30752E+03
   749.0946779  1.30733E+03
   749.0961761  1.30661E+03
   749.0976743  1.30518E+03
   749.0991725  1.30268E+03
   749.1006707  1.29929E+03
   749.1021690  1.29483E+03
   749.1036672  1.28948E+03
   749.1051654  1.28377E+03
   749.1066636  1.27860E+03
   749.1081617  1.27450E+03
   749.1096599  1.27235E+03
   749.1111581  1.27270E+03
   749.1126563  1.27555E+03
   749.1141546  1.28036E+03
   749.1156528  1.28623E+03
   749.1171511  1.29211E+03
   749.1186493  1.29745E+03
   749.1201476  1.30172E+03
   749.1216458  1.30456E+03
   749.1231441  1.30652E+03
   749.1246423  1.30758E+03
   749.1261406  1.30811E+03
   749.1276389  1.30846E+03
   749.1291371  1.30846E+03
   749.1306354  1.30828E+03
   749.1321335  1.30791E+03
   749.1336318  1.30737E+03
   749.1351300  1.30666E+03
   749.1366283  1.30576E+03
   749.1381266  1.30486E+03
   749.1396249  1.30397E+03
   749.1411232  1.30307E+03
   749.1426215  1.30200E+03
   749.1441198  1.30039E+03
   749.1456181  1.29807E+03
   749.1471164  1.29503E+03
   749.1486147  1.29129E+03
   749.1501130  1.28683E+03
   749.1516113  1.28165E+03
   749.1531096  1.27541E+03
   749.1546078  1.26792E+03
   749.1561061  1.25883E+03
   749.1576044  1.24814E+03
   749.1591027  1.23691E+03
   749.1606011  1.22692E+03
   749.1620994  1.21979E+03
   749.1635977  1.21711E+03
   749.1650961  1.21925E+03
   749.1665944  1.22548E+03
   749.1680928  1.23367E+03
   749.1695911  1.24168E+03
   749.1710895  1.24773E+03
   749.1725878  1.25129E+03
   749.1740862  1.25271E+03
   749.1755845  1.25342E+03
   749.1770827  1.25466E+03
   749.1785811  1.25751E+03
   749.1800794  1.26214E+03
   749.1815778  1.26819E+03
   749.1830762  1.27460E+03
   749.1845746  1.28065E+03
   749.1860729  1.28563E+03
   749.1875713  1.28937E+03
   749.1890697  1.29168E+03
   749.1905681  1.29310E+03
   749.1920665  1.29416E+03
   749.1935649  1.29541E+03
   749.1950633  1.29665E+03
   749.1965617  1.29825E+03
   749.1980601  1.30002E+03
   749.1995583  1.30162E+03
   749.2010567  1.30304E+03
   749.2025552  1.30393E+03
   749.2040536  1.30410E+03
   749.2055520  1.30374E+03
   749.2070504  1.30266E+03
   749.2085488  1.30106E+03
   749.2100473  1.29909E+03
   749.2115457  1.29713E+03
   749.2130441  1.29534E+03
   749.2145426  1.29409E+03
   749.2160410  1.29319E+03
   749.2175395  1.29301E+03
   749.2190379  1.29336E+03
   749.2205364  1.29442E+03
   749.2220348  1.29584E+03
   749.2235331  1.29762E+03
   749.2250315  1.29957E+03
   749.2265300  1.30153E+03
   749.2280285  1.30348E+03
   749.2295269  1.30490E+03
   749.2310254  1.30614E+03
   749.2325239  1.30685E+03
   749.2340224  1.30720E+03
   749.2355208  1.30720E+03
   749.2370193  1.30684E+03
   749.2385178  1.30612E+03
   749.2400163  1.30504E+03
   749.2415148  1.30361E+03
   749.2430133  1.30200E+03
   749.2445118  1.30040E+03
   749.2460101  1.29914E+03
   749.2475086  1.29825E+03
   749.2490071  1.29807E+03
   749.2505056  1.29842E+03
   749.2520041  1.29948E+03
   749.2535027  1.30108E+03
   749.2550012  1.30268E+03
   749.2564997  1.30410E+03
   749.2579982  1.30516E+03
   749.2594967  1.30604E+03
   749.2609953  1.30640E+03
   749.2624938  1.30675E+03
   749.2639923  1.30692E+03
   749.2654909  1.30709E+03
   749.2669894  1.30727E+03
   749.2684878  1.30744E+03
   749.2699863  1.30779E+03
   749.2714849  1.30796E+03
   749.2729835  1.30796E+03
   749.2744820  1.30795E+03
   749.2759806  1.30795E+03
   749.2774791  1.30776E+03
   749.2789777  1.30758E+03
   749.2804763  1.30757E+03
   749.2819748  1.30775E+03
   749.2834734  1.30792E+03
   749.2849720  1.30809E+03
   749.2864706  1.30844E+03
   749.2879692  1.30862E+03
   749.2894677  1.30879E+03
   749.2909663  1.30878E+03
   749.2924648  1.30878E+03
   749.2939634  1.30860E+03
   749.2954620  1.30823E+03
   749.2969606  1.30769E+03
   749.2984592  1.30680E+03
   749.2999578  1.30573E+03
   749.3014564  1.30394E+03
   749.3029550  1.30126E+03
   749.3044536  1.29769E+03
   749.3059522  1.29288E+03
   749.3074509  1.28735E+03
   749.3089495  1.28129E+03
   749.3104481  1.27559E+03
   749.3119467  1.27113E+03
   749.3134454  1.26863E+03
   749.3149438  1.26845E+03
   749.3164425  1.27076E+03
   749.3179411  1.27503E+03
   749.3194398  1.28037E+03
   749.3209384  1.28606E+03
   749.3224371  1.29122E+03
   749.3239357  1.29531E+03
   749.3254344  1.29816E+03
   749.3269331  1.29993E+03
   749.3284317  1.30064E+03
   749.3299304  1.30081E+03
   749.3314291  1.30081E+03
   749.3329277  1.30080E+03
   749.3344264  1.30080E+03
   749.3359251  1.30097E+03
   749.3374236  1.30114E+03
   749.3389223  1.30149E+03
   749.3404210  1.30167E+03
   749.3419197  1.30184E+03
   749.3434184  1.30183E+03
   749.3449171  1.30165E+03
   749.3464158  1.30129E+03
   749.3479145  1.30057E+03
   749.3494132  1.29932E+03
   749.3509119  1.29664E+03
   749.3524106  1.29165E+03
   749.3539093  1.28167E+03
   749.3554080  1.26350E+03
   749.3569068  1.23180E+03
   749.3584055  1.18247E+03
   749.3599040  1.11301E+03
   749.3614028  1.02468E+03
   749.3629015  9.24058E+02
   749.3644002  8.21125E+02
   749.3658990  7.27452E+02
   749.3673977  6.53368E+02
   749.3688965  6.06353E+02
   749.3703952  5.90324E+02
   749.3718940  6.06349E+02
   749.3733927  6.53180E+02
   749.3748915  7.27078E+02
   749.3763902  8.20742E+02
   749.3778890  9.23487E+02
   749.3793878  1.02392E+03
   749.3808865  1.11206E+03
   749.3823853  1.18150E+03
   749.3838839  1.23100E+03
   749.3853827  1.26269E+03
   749.3868815  1.28121E+03
   749.3883803  1.29117E+03
   749.3898791  1.29669E+03
   749.3913778  1.29971E+03
   749.3928766  1.30148E+03
   749.3943754  1.30273E+03
   749.3958742  1.30361E+03
   749.3973730  1.30414E+03
   749.3988718  1.30467E+03
   749.4003707  1.30502E+03
   749.4018695  1.30537E+03
   749.4033683  1.30572E+03
   749.4048671  1.30607E+03
   749.4063657  1.30642E+03
   749.4078646  1.30660E+03
   749.4093634  1.30695E+03
   749.4108622  1.30730E+03
   749.4123611  1.30747E+03
   749.4138599  1.30747E+03
   749.4153587  1.30746E+03
   749.4168576  1.30745E+03
   749.4183564  1.30727E+03
   749.4198553  1.30709E+03
   749.4213541  1.30690E+03
   749.4228530  1.30654E+03
   749.4243518  1.30636E+03
   749.4258507  1.30600E+03
   749.4273496  1.30582E+03
   749.4288483  1.30545E+03
   749.4303471  1.30491E+03
   749.4318460  1.30438E+03
   749.4333449  1.30384E+03
   749.4348437  1.30312E+03
   749.4363426  1.30240E+03
   749.4378415  1.30133E+03
   749.4393404  1.30025E+03
   749.4408393  1.29865E+03
   749.4423382  1.29668E+03
   749.4438371  1.29436E+03
   749.4453360  1.29187E+03
   749.4468349  1.28937E+03
   749.4483338  1.28723E+03
   749.4498327  1.28580E+03
   749.4513316  1.28526E+03
   749.4528303  1.28561E+03
   749.4543293  1.28667E+03
   749.4558282  1.28845E+03
   749.4573271  1.29076E+03
   749.4588260  1.29324E+03
   749.4603250  1.29591E+03
   749.4618239  1.29857E+03
   749.4633228  1.30088E+03
   749.4648218  1.30301E+03
   749.4663207  1.30479E+03
   749.4678196  1.30603E+03
   749.4693186  1.30709E+03
   749.4708175  1.30762E+03
   749.4723165  1.30797E+03
   749.4738155  1.30815E+03
   749.4753142  1.30832E+03
   749.4768132  1.30849E+03
   749.4783122  1.30849E+03
   749.4798111  1.30848E+03
   749.4813101  1.30848E+03
   749.4828091  1.30847E+03
   749.4843081  1.30847E+03
   749.4858070  1.30828E+03
   749.4873060  1.30828E+03
   749.4888050  1.30827E+03
   749.4903040  1.30827E+03
   749.4918030  1.30826E+03
   749.4933020  1.30826E+03
   749.4948010  1.30807E+03
   749.4963000  1.30789E+03
   749.4977988  1.30753E+03
   749.4992978  1.30681E+03
   749.5007968  1.30556E+03
   749.5022958  1.30377E+03
   749.5037949  1.30128E+03
   749.5052939  1.29807E+03
   749.5067929  1.29450E+03
   749.5082919  1.29094E+03
   749.5097909  1.28773E+03
   749.5112900  1.28559E+03
   749.5127890  1.28487E+03
   749.5142881  1.28558E+03
   749.5157871  1.28771E+03
   749.5172861  1.29073E+03
   749.5187852  1.29428E+03
   749.5202841  1.29766E+03
   749.5217831  1.30068E+03
   749.5232822  1.30263E+03
   749.5247812  1.30334E+03
   749.5262803  1.30262E+03
   749.5277793  1.30013E+03
   749.5292784  1.29531E+03
   749.5307775  1.28837E+03
   749.5322766  1.27964E+03
   749.5337756  1.27002E+03
   749.5352747  1.26147E+03
   749.5367738  1.25524E+03
   749.5382729  1.25310E+03
   749.5397720  1.25523E+03
   749.5412711  1.26110E+03
   749.5427701  1.26964E+03
   749.5442691  1.27889E+03
   749.5457682  1.28725E+03
   749.5472673  1.29365E+03
   749.5487664  1.29756E+03
   749.5502655  1.29898E+03
   749.5517646  1.29826E+03
   749.5532637  1.29612E+03
   749.5547628  1.29273E+03
   749.5562620  1.28864E+03
   749.5577611  1.28436E+03
   749.5592602  1.28026E+03
   749.5607593  1.27687E+03
   749.5622585  1.27402E+03
   749.5637576  1.27224E+03
   749.5652567  1.27116E+03
   749.5667557  1.27098E+03
   749.5682549  1.27186E+03
   749.5697540  1.27399E+03
   749.5712532  1.27719E+03
   749.5727523  1.28110E+03
   749.5742515  1.28555E+03
   749.5757506  1.29017E+03
   749.5772498  1.29426E+03
   749.5787490  1.29746E+03
   749.5802481  1.29994E+03
   749.5817473  1.30172E+03
   749.5832465  1.30278E+03
   749.5847456  1.30331E+03
   749.5862448  1.30348E+03
   749.5877440  1.30348E+03
   749.5892430  1.30347E+03
   749.5907422  1.30329E+03
   749.5922414  1.30311E+03
   749.5937406  1.30292E+03
   749.5952398  1.30238E+03
   749.5967390  1.30167E+03
   749.5982382  1.30059E+03
   749.5997374  1.29899E+03
   749.6012366  1.29667E+03
   749.6027358  1.29417E+03
   749.6042351  1.29114E+03
   749.6057343  1.28811E+03
   749.6072335  1.28508E+03
   749.6087327  1.28223E+03
   749.6102320  1.27937E+03
   749.6117312  1.27670E+03
   749.6132302  1.27438E+03
   749.6147295  1.27295E+03
   749.6162287  1.27241E+03
   749.6177280  1.27312E+03
   749.6192272  1.27507E+03
   749.6207265  1.27827E+03
   749.6222257  1.28218E+03
   749.6237250  1.28609E+03
   749.6252242  1.28982E+03
   749.6267235  1.29284E+03
   749.6282228  1.29497E+03
   749.6297220  1.29604E+03
   749.6312213  1.29621E+03
   749.6327206  1.29549E+03
   749.6342199  1.29406E+03
   749.6357190  1.29121E+03
   749.6372182  1.28658E+03
   749.6387175  1.27928E+03
   749.6402168  1.26824E+03
   749.6417161  1.25346E+03
   749.6432154  1.23531E+03
   749.6447147  1.21591E+03
   749.6462140  1.19829E+03
   749.6477133  1.18511E+03
   749.6492126  1.17941E+03
   749.6507119  1.18172E+03
   749.6522112  1.19168E+03
   749.6537106  1.20680E+03
   749.6552099  1.22424E+03
   749.6567092  1.24131E+03
   749.6582083  1.25590E+03
   749.6597077  1.26728E+03
   749.6612070  1.27511E+03
   749.6627063  1.27991E+03
   749.6642057  1.28186E+03
   749.6657050  1.28061E+03
   749.6672044  1.27598E+03
   749.6687037  1.26743E+03
   749.6702030  1.25479E+03
   749.6717024  1.23877E+03
   749.6732018  1.22115E+03
   749.6747011  1.20496E+03
   749.6762005  1.19267E+03
   749.6776998  1.18698E+03
   749.6791992  1.18822E+03
   749.6806984  1.19586E+03
   749.6821978  1.20725E+03
   749.6836971  1.21916E+03
   749.6851965  1.22912E+03
   749.6866959  1.23463E+03
   749.6881953  1.23516E+03
   749.6896947  1.22982E+03
   749.6911941  1.21878E+03
   749.6926935  1.20045E+03
   749.6941929  1.17305E+03
   749.6956923  1.13283E+03
   749.6971917  1.07607E+03
   749.6986911  1.00045E+03
   749.7001905  9.07392E+02
   749.7016899  8.01704E+02
   749.7031893  6.91747E+02
   749.7046885  5.86773E+02
   749.7061880  4.95321E+02
   749.7076874  4.22729E+02
   749.7091868  3.71310E+02
   749.7106863  3.41063E+02
   749.7121857  3.31099E+02
   749.7136851  3.41238E+02
   749.7151846  3.72016E+02
   749.7166840  4.24498E+02
   749.7181834  4.98864E+02
   749.7196829  5.92799E+02
   749.7211823  7.00610E+02
   749.7226818  8.13579E+02
   749.7241813  9.21567E+02
   749.7256807  1.01603E+03
   749.7271800  1.09128E+03
   749.7286795  1.14679E+03
   749.7301789  1.18521E+03
   749.7316784  1.21082E+03
   749.7331779  1.22825E+03
   749.7346774  1.24052E+03
   749.7361768  1.24977E+03
   749.7376763  1.25706E+03
   749.7391758  1.26292E+03
   749.7406753  1.26790E+03
   749.7421748  1.27199E+03
   749.7436743  1.27554E+03
   749.7451738  1.27838E+03
   749.7466733  1.28104E+03
   749.7481728  1.28317E+03
   749.7496721  1.28495E+03
   749.7511716  1.28672E+03
   749.7526712  1.28814E+03
   749.7541707  1.28920E+03
   749.7556702  1.29026E+03
   749.7571697  1.29079E+03
   749.7586692  1.29079E+03
   749.7601688  1.28989E+03
   749.7616683  1.28757E+03
   749.7631678  1.28348E+03
   749.7646674  1.27725E+03
   749.7661669  1.26888E+03
   749.7676665  1.25856E+03
   749.7691660  1.24752E+03
   749.7706656  1.23756E+03
   749.7721651  1.23044E+03
   749.7736645  1.22759E+03
   749.7751640  1.22989E+03
   749.7766636  1.23683E+03
   749.7781632  1.24696E+03
   749.7796627  1.25870E+03
   749.7811623  1.27025E+03
   749.7826619  1.28039E+03
   749.7841615  1.28821E+03
   749.7856610  1.29407E+03
   749.7871606  1.29780E+03
   749.7886602  1.30029E+03
   749.7901598  1.30171E+03
   749.7916594  1.30259E+03
   749.7931590  1.30312E+03
   749.7946586  1.30347E+03
   749.7961580  1.30364E+03
   749.7976576  1.30364E+03
   749.7991572  1.30363E+03
   749.8006568  1.30345E+03
   749.8021564  1.30291E+03
   749.8036561  1.30184E+03
   749.8051557  1.29970E+03
   749.8066553  1.29614E+03
   749.8081549  1.29079E+03
   749.8096545  1.28332E+03
   749.8111542  1.27424E+03
   749.8126538  1.26445E+03
   749.8141535  1.25556E+03
   749.8156531  1.24933E+03
   749.8171527  1.24701E+03
   749.8186522  1.24896E+03
   749.8201519  1.25465E+03
   749.8216515  1.26282E+03
   749.8231512  1.27153E+03
   749.8246508  1.27918E+03
   749.8261505  1.28504E+03
   749.8276501  1.28877E+03
   749.8291498  1.29054E+03
   749.8306495  1.29143E+03
   749.8321492  1.29196E+03
   749.8336488  1.29248E+03
   749.8351485  1.29337E+03
   749.8366482  1.29479E+03
   749.8381479  1.29603E+03
   749.8396476  1.29727E+03
   749.8411471  1.29815E+03
   749.8426468  1.29832E+03
   749.8441465  1.29778E+03
   749.8456462  1.29671E+03
   749.8471459  1.29528E+03
   749.8486456  1.29368E+03
   749.8501453  1.29225E+03
   749.8516450  1.29136E+03
   749.8531447  1.29117E+03
   749.8546444  1.29170E+03
   749.8561441  1.29312E+03
   749.8576439  1.29525E+03
   749.8591436  1.29755E+03
   749.8606433  1.29986E+03
   749.8621431  1.30181E+03
   749.8636428  1.30341E+03
   749.8651424  1.30447E+03
   749.8666421  1.30518E+03
   749.8681418  1.30553E+03
   749.8696416  1.30570E+03
   749.8711413  1.30569E+03
   749.8726411  1.30569E+03
   749.8741409  1.30568E+03
   749.8756406  1.30550E+03
   749.8771404  1.30549E+03
   749.8786401  1.30531E+03
   749.8801399  1.30531E+03
   749.8816397  1.30530E+03
   749.8831395  1.30512E+03
   749.8846392  1.30493E+03
   749.8861390  1.30440E+03
   749.8876386  1.30368E+03
   749.8891384  1.30190E+03
   749.8906382  1.29887E+03
   749.8921380  1.29388E+03
   749.8936378  1.28641E+03
   749.8951376  1.27645E+03
   749.8966374  1.26435E+03
   749.8981372  1.25172E+03
   749.8996370  1.24033E+03
   749.9011368  1.23232E+03
   749.9026366  1.22930E+03
   749.9041364  1.23214E+03
   749.9056363  1.23978E+03
   749.9071361  1.25115E+03
   749.9086359  1.26360E+03
   749.9101356  1.27551E+03
   749.9116354  1.28546E+03
   749.9131352  1.29292E+03
   749.9146351  1.29807E+03
   749.9161349  1.30145E+03
   749.9176348  1.30340E+03
   749.9191346  1.30481E+03
   749.9206345  1.30552E+03
   749.9221343  1.30605E+03
   749.9236342  1.30658E+03
   749.9251340  1.30675E+03
   749.9266339  1.30710E+03
   749.9281337  1.30710E+03
   749.9296336  1.30727E+03
   749.9311335  1.30744E+03
   749.9326334  1.30743E+03
   749.9341331  1.30743E+03
   749.9356329  1.30742E+03
   749.9371328  1.30724E+03
   749.9386327  1.30706E+03
   749.9401326  1.30688E+03
   749.9416325  1.30634E+03
   749.9431324  1.30562E+03
   749.9446323  1.30455E+03
   749.9461322  1.30312E+03
   749.9476321  1.30152E+03
   749.9491320  1.29973E+03
   749.9506319  1.29777E+03
   749.9521318  1.29599E+03
   749.9536317  1.29438E+03
   749.9551316  1.29313E+03
   749.9566314  1.29259E+03
   749.9581313  1.29277E+03
   749.9596312  1.29365E+03
   749.9611312  1.29525E+03
   749.9626311  1.29720E+03
   749.9641310  1.29932E+03
   749.9656310  1.30145E+03
   749.9671309  1.30323E+03
   749.9686309  1.30464E+03
   749.9701308  1.30570E+03
   749.9716308  1.30623E+03
   749.9731307  1.30658E+03
   749.9746307  1.30676E+03
   749.9761306  1.30693E+03
   749.9776306  1.30692E+03
   749.9791304  1.30692E+03
   749.9806304  1.30691E+03
   749.9821303  1.30708E+03
   749.9836303  1.30708E+03
   749.9851303  1.30725E+03
   749.9866303  1.30725E+03
   749.9881303  1.30724E+03
   749.9896303  1.30724E+03
   749.9911302  1.30723E+03
   749.9926302  1.30705E+03
   749.9941302  1.30704E+03
   749.9956302  1.30686E+03
   749.9971302  1.30685E+03
   749.9986302  1.30685E+03
   750.0001303  1.30684E+03
   750.0016301  1.30684E+03
   750.0031301  1.30683E+03
   750.0046301  1.30683E+03
   750.0061301  1.30647E+03
   750.0076302  1.30593E+03
   750.0091302  1.30521E+03
   750.0106302  1.30432E+03
   750.0121303  1.30342E+03
   750.0136303  1.30271E+03
   750.0151303  1.30235E+03
   750.0166304  1.30234E+03
   750.0181304  1.30269E+03
   750.0196305  1.30340E+03
   750.0211305  1.30428E+03
   750.0226306  1.30517E+03
   750.0241306  1.30587E+03
   750.0256305  1.30658E+03
   750.0271306  1.30693E+03
   750.0286306  1.30710E+03
   750.0301307  1.30710E+03
   750.0316308  1.30673E+03
   750.0331309  1.30637E+03
   750.0346309  1.30566E+03
   750.0361310  1.30441E+03
   750.0376311  1.30280E+03
   750.0391312  1.30031E+03
   750.0406313  1.29710E+03
   750.0421313  1.29230E+03
